# Freq (Hz)	LIGO_Hanford_PSD (1/Hz)	LIGO_Livingston_PSD (1/Hz)	
20.000000	6.2576000e-44	8.0478500e-45
20.250000	5.8965500e-44	7.1708500e-45
20.500000	5.5597500e-44	6.4226500e-45
20.750000	5.2461500e-44	5.7806000e-45
21.000000	4.9502900e-44	5.2267000e-45
21.250000	4.6730500e-44	4.7473350e-45
21.500000	4.4124450e-44	4.3290850e-45
21.750000	4.1685500e-44	3.9606350e-45
22.000000	3.9394200e-44	3.6363650e-45
22.250000	3.7257700e-44	3.3472700e-45
22.500000	3.5239700e-44	3.0906600e-45
22.750000	3.3350800e-44	2.8599850e-45
23.000000	3.1574600e-44	2.6529900e-45
23.250000	2.9897200e-44	2.4667050e-45
23.500000	2.8321500e-44	2.2979150e-45
23.750000	2.6840950e-44	2.1447000e-45
24.000000	2.5443900e-44	2.0048550e-45
24.250000	2.4122550e-44	1.8753750e-45
24.500000	2.2887250e-44	1.7564950e-45
24.750000	2.1720050e-44	1.6476250e-45
25.000000	2.0619550e-44	1.5478600e-45
25.250000	1.9581700e-44	1.4553200e-45
25.500000	1.8601500e-44	1.3713550e-45
25.750000	1.7677950e-44	1.2930150e-45
26.000000	1.6799500e-44	1.2202600e-45
26.250000	1.5973750e-44	1.1528550e-45
26.500000	1.5192550e-44	1.0908650e-45
26.750000	1.4453450e-44	1.0338050e-45
27.000000	1.3755500e-44	9.8051000e-46
27.250000	1.3095400e-44	9.3178500e-46
27.500000	1.2469450e-44	8.8697000e-46
27.750000	1.1876200e-44	8.4479500e-46
28.000000	1.1315950e-44	8.0543000e-46
28.250000	1.0787000e-44	7.6886500e-46
28.500000	1.0286700e-44	7.3441000e-46
28.750000	9.8141500e-45	7.0198000e-46
29.000000	9.3648500e-45	6.7182500e-46
29.250000	8.9386000e-45	6.4370000e-46
29.500000	8.5339500e-45	6.1782000e-46
29.750000	8.1495500e-45	5.9354500e-46
30.000000	7.7857000e-45	5.7107000e-46
30.250000	7.4406000e-45	5.5051500e-46
30.500000	7.1132500e-45	5.3135000e-46
30.750000	6.8021500e-45	5.1349500e-46
31.000000	6.5067500e-45	4.9644750e-46
31.250000	6.2257500e-45	4.8033700e-46
31.500000	5.9590500e-45	4.6551450e-46
31.750000	5.7051000e-45	4.5113700e-46
32.000000	5.4640500e-45	4.3780950e-46
32.250000	5.2341500e-45	4.2486500e-46
32.500000	5.0156500e-45	4.1267000e-46
32.750000	4.8078200e-45	4.0128250e-46
33.000000	4.6102300e-45	3.9039500e-46
33.250000	4.4212250e-45	3.7994450e-46
33.500000	4.2412450e-45	3.6988350e-46
33.750000	4.0702300e-45	3.6022350e-46
34.000000	3.9077000e-45	3.5110500e-46
34.250000	3.7526000e-45	3.4221300e-46
34.500000	3.6050500e-45	3.3361500e-46
34.750000	3.4637350e-45	3.2539550e-46
35.000000	3.3289650e-45	3.1758600e-46
35.250000	3.2000900e-45	3.1013550e-46
35.500000	3.0773350e-45	3.0300850e-46
35.750000	2.9598500e-45	2.9613100e-46
36.000000	2.8477150e-45	2.8959100e-46
36.250000	2.7410800e-45	2.8333600e-46
36.500000	2.6387500e-45	2.7728800e-46
36.750000	2.5410900e-45	2.7154150e-46
37.000000	2.4475950e-45	2.6605650e-46
37.250000	2.3579250e-45	2.6085400e-46
37.500000	2.2725050e-45	2.5580500e-46
37.750000	2.1907900e-45	2.5095850e-46
38.000000	2.1126350e-45	2.4632550e-46
38.250000	2.0377900e-45	2.4187400e-46
38.500000	1.9659750e-45	2.3763150e-46
38.750000	1.8974200e-45	2.3360800e-46
39.000000	1.8319650e-45	2.2967350e-46
39.250000	1.7691200e-45	2.2586950e-46
39.500000	1.7091000e-45	2.2223900e-46
39.750000	1.6512250e-45	2.1873300e-46
40.000000	1.5958800e-45	2.1532800e-46
40.250000	1.5426200e-45	2.1210600e-46
40.500000	1.4917350e-45	2.0901600e-46
40.750000	1.4429200e-45	2.0597100e-46
41.000000	1.3960600e-45	2.0308450e-46
41.250000	1.3510150e-45	2.0027700e-46
41.500000	1.3077750e-45	1.9755450e-46
41.750000	1.2662000e-45	1.9490850e-46
42.000000	1.2263500e-45	1.9230000e-46
42.250000	1.1880900e-45	1.8976650e-46
42.500000	1.1512200e-45	1.8730700e-46
42.750000	1.1157550e-45	1.8492100e-46
43.000000	1.0817250e-45	1.8256650e-46
43.250000	1.0490350e-45	1.8027150e-46
43.500000	1.0176750e-45	1.7804650e-46
43.750000	9.8735000e-46	1.7588000e-46
44.000000	9.5822000e-46	1.7373250e-46
44.250000	9.3017000e-46	1.7159550e-46
44.500000	9.0297500e-46	1.6954100e-46
44.750000	8.7699500e-46	1.6750500e-46
45.000000	8.5194000e-46	1.6548950e-46
45.250000	8.2780500e-46	1.6350900e-46
45.500000	8.0451500e-46	1.6153300e-46
45.750000	7.8204500e-46	1.5960800e-46
46.000000	7.6036000e-46	1.5776400e-46
46.250000	7.3948500e-46	1.5589550e-46
46.500000	7.1947000e-46	1.5407650e-46
46.750000	7.0009500e-46	1.5229850e-46
47.000000	6.8136500e-46	1.5051800e-46
47.250000	6.6324000e-46	1.4880750e-46
47.500000	6.4580500e-46	1.4710050e-46
47.750000	6.2899500e-46	1.4544850e-46
48.000000	6.1277000e-46	1.4383350e-46
48.250000	5.9706000e-46	1.4224250e-46
48.500000	5.8187000e-46	1.4067100e-46
48.750000	5.6727000e-46	1.3912800e-46
49.000000	5.5312000e-46	1.3761950e-46
49.250000	5.3943000e-46	1.3614700e-46
49.500000	5.2621000e-46	1.3470500e-46
49.750000	5.1346500e-46	1.3324850e-46
50.000000	5.0113500e-46	1.3182500e-46
50.250000	4.8916400e-46	1.3045000e-46
50.500000	4.7761750e-46	1.2909400e-46
50.750000	4.6648500e-46	1.2775700e-46
51.000000	4.5566350e-46	1.2645550e-46
51.250000	4.4516250e-46	1.2514550e-46
51.500000	4.3504050e-46	1.2386700e-46
51.750000	4.2517850e-46	1.2261400e-46
52.000000	4.1568850e-46	1.2138200e-46
52.250000	4.0648700e-46	1.2016450e-46
52.500000	3.9757750e-46	1.1898700e-46
52.750000	3.8893350e-46	1.1781750e-46
53.000000	3.8060450e-46	1.1667450e-46
53.250000	3.7243550e-46	1.1555450e-46
53.500000	3.6455650e-46	1.1447000e-46
53.750000	3.5694550e-46	1.1339200e-46
54.000000	3.4952750e-46	1.1233050e-46
54.250000	3.4234400e-46	1.1126200e-46
54.500000	3.3536800e-46	1.1023100e-46
54.750000	3.2857750e-46	1.0921100e-46
55.000000	3.2205900e-46	1.0821500e-46
55.250000	3.1569450e-46	1.0723650e-46
55.500000	3.0954400e-46	1.0627000e-46
55.750000	3.0357850e-46	1.0532150e-46
56.000000	2.9779300e-46	1.0437500e-46
56.250000	2.9214300e-46	1.0345900e-46
56.500000	2.8666200e-46	1.0254700e-46
56.750000	2.8133050e-46	1.0164850e-46
57.000000	2.7614900e-46	1.0077400e-46
57.250000	2.7114200e-46	9.9905500e-47
57.500000	2.6624850e-46	9.9059500e-47
57.750000	2.6148750e-46	9.8214000e-47
58.000000	2.5686500e-46	9.7386500e-47
58.250000	2.5238500e-46	9.6589500e-47
58.500000	2.4799600e-46	9.5804500e-47
58.750000	2.4375250e-46	9.5036000e-47
59.000000	2.3961700e-46	9.4255000e-47
59.250000	2.3559200e-46	9.3508500e-47
59.500000	2.3171550e-46	9.2760000e-47
59.750000	2.2788750e-46	9.2024500e-47
60.000000	2.2417200e-46	9.1294000e-47
60.250000	2.2055550e-46	9.0598000e-47
60.500000	2.1703450e-46	8.9906500e-47
60.750000	2.1361750e-46	8.9223000e-47
61.000000	2.1028750e-46	8.8552500e-47
61.250000	2.0706950e-46	8.7879000e-47
61.500000	2.0392400e-46	8.7219000e-47
61.750000	2.0084300e-46	8.6578500e-47
62.000000	1.9786850e-46	8.5934500e-47
62.250000	1.9494600e-46	8.5303500e-47
62.500000	1.9210950e-46	8.4692000e-47
62.750000	1.8936600e-46	8.4082500e-47
63.000000	1.8668400e-46	8.3478500e-47
63.250000	1.8408200e-46	8.2906000e-47
63.500000	1.8149200e-46	8.2312500e-47
63.750000	1.7902100e-46	8.1736500e-47
64.000000	1.7659650e-46	8.1171500e-47
64.250000	1.7422950e-46	8.0614000e-47
64.500000	1.7192250e-46	8.0071500e-47
64.750000	1.6964100e-46	7.9536500e-47
65.000000	1.6743800e-46	7.9008500e-47
65.250000	1.6530000e-46	7.8486000e-47
65.500000	1.6320100e-46	7.7970000e-47
65.750000	1.6115550e-46	7.7462500e-47
66.000000	1.5916550e-46	7.6963000e-47
66.250000	1.5721950e-46	7.6477000e-47
66.500000	1.5530750e-46	7.6006500e-47
66.750000	1.5345400e-46	7.5528500e-47
67.000000	1.5165200e-46	7.5068500e-47
67.250000	1.4989450e-46	7.4612500e-47
67.500000	1.4817400e-46	7.4165500e-47
67.750000	1.4648150e-46	7.3719500e-47
68.000000	1.4483450e-46	7.3282500e-47
68.250000	1.4321800e-46	7.2845000e-47
68.500000	1.4163750e-46	7.2422000e-47
68.750000	1.4008300e-46	7.2003000e-47
69.000000	1.3858700e-46	7.1586500e-47
69.250000	1.3710700e-46	7.1181000e-47
69.500000	1.3567950e-46	7.0779500e-47
69.750000	1.3430350e-46	7.0383500e-47
70.000000	1.3292850e-46	6.9991000e-47
70.250000	1.3160200e-46	6.9611000e-47
70.500000	1.3029900e-46	6.9241000e-47
70.750000	1.2901100e-46	6.8865000e-47
71.000000	1.2777000e-46	6.8498500e-47
71.250000	1.2655700e-46	6.8134500e-47
71.500000	1.2537050e-46	6.7775000e-47
71.750000	1.2419750e-46	6.7423000e-47
72.000000	1.2305800e-46	6.7078000e-47
72.250000	1.2192750e-46	6.6738500e-47
72.500000	1.2083500e-46	6.6403000e-47
72.750000	1.1976200e-46	6.6076500e-47
73.000000	1.1872300e-46	6.5755500e-47
73.250000	1.1770550e-46	6.5441500e-47
73.500000	1.1671200e-46	6.5130500e-47
73.750000	1.1573050e-46	6.4822000e-47
74.000000	1.1477150e-46	6.4519500e-47
74.250000	1.1384800e-46	6.4222000e-47
74.500000	1.1293950e-46	6.3927000e-47
74.750000	1.1205000e-46	6.3646500e-47
75.000000	1.1118200e-46	6.3365000e-47
75.250000	1.1034500e-46	6.3088500e-47
75.500000	1.0952450e-46	6.2811500e-47
75.750000	1.0870700e-46	6.2537500e-47
76.000000	1.0791250e-46	6.2273000e-47
76.250000	1.0713000e-46	6.2007500e-47
76.500000	1.0636050e-46	6.1752000e-47
76.750000	1.0561700e-46	6.1494000e-47
77.000000	1.0488650e-46	6.1241000e-47
77.250000	1.0417800e-46	6.0987500e-47
77.500000	1.0347250e-46	6.0747000e-47
77.750000	1.0279100e-46	6.0503500e-47
78.000000	1.0211650e-46	6.0263500e-47
78.250000	1.0147450e-46	6.0035000e-47
78.500000	1.0083200e-46	5.9801000e-47
78.750000	1.0020750e-46	5.9579500e-47
79.000000	9.9596000e-47	5.9358000e-47
79.250000	9.8991500e-47	5.9138500e-47
79.500000	9.8404500e-47	5.8926500e-47
79.750000	9.7833000e-47	5.8715500e-47
80.000000	9.7266500e-47	5.8506500e-47
80.250000	9.6723000e-47	5.8301500e-47
80.500000	9.6197000e-47	5.8104000e-47
80.750000	9.5685500e-47	5.7907000e-47
81.000000	9.5182500e-47	5.7713000e-47
81.250000	9.4686500e-47	5.7528000e-47
81.500000	9.4199000e-47	5.7349000e-47
81.750000	9.3725000e-47	5.7169500e-47
82.000000	9.3260500e-47	5.6988000e-47
82.250000	9.2801500e-47	5.6809500e-47
82.500000	9.2361000e-47	5.6636500e-47
82.750000	9.1925000e-47	5.6463500e-47
83.000000	9.1498500e-47	5.6294000e-47
83.250000	9.1088500e-47	5.6122500e-47
83.500000	9.0676500e-47	5.5958500e-47
83.750000	9.0285000e-47	5.5795000e-47
84.000000	8.9902500e-47	5.5638000e-47
84.250000	8.9522500e-47	5.5485000e-47
84.500000	8.9146500e-47	5.5333500e-47
84.750000	8.8779000e-47	5.5189000e-47
85.000000	8.8429500e-47	5.5046500e-47
85.250000	8.8083500e-47	5.4898500e-47
85.500000	8.7730500e-47	5.4763500e-47
85.750000	8.7395500e-47	5.4618500e-47
86.000000	8.7063500e-47	5.4481000e-47
86.250000	8.6747500e-47	5.4350000e-47
86.500000	8.6436000e-47	5.4218500e-47
86.750000	8.6122000e-47	5.4089500e-47
87.000000	8.5823500e-47	5.3960000e-47
87.250000	8.5540000e-47	5.3836000e-47
87.500000	8.5257000e-47	5.3718500e-47
87.750000	8.4972000e-47	5.3602500e-47
88.000000	8.4692000e-47	5.3483000e-47
88.250000	8.4424000e-47	5.3370000e-47
88.500000	8.4158500e-47	5.3257000e-47
88.750000	8.3903000e-47	5.3149500e-47
89.000000	8.3643000e-47	5.3040500e-47
89.250000	8.3399000e-47	5.2931000e-47
89.500000	8.3156500e-47	5.2830500e-47
89.750000	8.2916000e-47	5.2730500e-47
90.000000	8.2685000e-47	5.2630000e-47
90.250000	8.2461000e-47	5.2532500e-47
90.500000	8.2236000e-47	5.2431500e-47
90.750000	8.2025000e-47	5.2337000e-47
91.000000	8.1801500e-47	5.2244000e-47
91.250000	8.1597000e-47	5.2156000e-47
91.500000	8.1395000e-47	5.2065500e-47
91.750000	8.1192500e-47	5.1980500e-47
92.000000	8.0997500e-47	5.1896500e-47
92.250000	8.0798500e-47	5.1813000e-47
92.500000	8.0614000e-47	5.1733000e-47
92.750000	8.0431500e-47	5.1652000e-47
93.000000	8.0248000e-47	5.1575500e-47
93.250000	8.0076500e-47	5.1502000e-47
93.500000	7.9910000e-47	5.1430000e-47
93.750000	7.9751500e-47	5.1359500e-47
94.000000	7.9586000e-47	5.1291500e-47
94.250000	7.9422000e-47	5.1225500e-47
94.500000	7.9262000e-47	5.1159500e-47
94.750000	7.9104000e-47	5.1093500e-47
95.000000	7.8950500e-47	5.1029500e-47
95.250000	7.8793500e-47	5.0971000e-47
95.500000	7.8643500e-47	5.0909000e-47
95.750000	7.8509000e-47	5.0849500e-47
96.000000	7.8358000e-47	5.0789000e-47
96.250000	7.8213000e-47	5.0734000e-47
96.500000	7.8086500e-47	5.0677000e-47
96.750000	7.7954500e-47	5.0628000e-47
97.000000	7.7819000e-47	5.0573000e-47
97.250000	7.7690000e-47	5.0523000e-47
97.500000	7.7561500e-47	5.0472500e-47
97.750000	7.7434000e-47	5.0421000e-47
98.000000	7.7297000e-47	5.0369000e-47
98.250000	7.7184500e-47	5.0319500e-47
98.500000	7.7069000e-47	5.0274000e-47
98.750000	7.6947500e-47	5.0230500e-47
99.000000	7.6826000e-47	5.0184500e-47
99.250000	7.6703000e-47	5.0143500e-47
99.500000	7.6584000e-47	5.0101000e-47
99.750000	7.6465500e-47	5.0066500e-47
100.000000	7.6351500e-47	5.0025500e-47
100.250000	7.6230500e-47	4.9988150e-47
100.500000	7.6112500e-47	4.9951650e-47
100.750000	7.5994000e-47	4.9916900e-47
101.000000	7.5890000e-47	4.9881050e-47
101.250000	7.5781000e-47	4.9848500e-47
101.500000	7.5673000e-47	4.9812450e-47
101.750000	7.5566500e-47	4.9784200e-47
102.000000	7.5456000e-47	4.9756950e-47
102.250000	7.5347500e-47	4.9730450e-47
102.500000	7.5230500e-47	4.9703900e-47
102.750000	7.5119500e-47	4.9676800e-47
103.000000	7.5012000e-47	4.9649800e-47
103.250000	7.4900000e-47	4.9621400e-47
103.500000	7.4789500e-47	4.9597500e-47
103.750000	7.4685500e-47	4.9576550e-47
104.000000	7.4574500e-47	4.9554650e-47
104.250000	7.4468500e-47	4.9535000e-47
104.500000	7.4366000e-47	4.9514350e-47
104.750000	7.4256500e-47	4.9495450e-47
105.000000	7.4151000e-47	4.9472050e-47
105.250000	7.4040000e-47	4.9454150e-47
105.500000	7.3937000e-47	4.9437250e-47
105.750000	7.3834000e-47	4.9419500e-47
106.000000	7.3731500e-47	4.9404600e-47
106.250000	7.3635000e-47	4.9389550e-47
106.500000	7.3531500e-47	4.9374000e-47
106.750000	7.3435000e-47	4.9358250e-47
107.000000	7.3331500e-47	4.9344050e-47
107.250000	7.3229500e-47	4.9337850e-47
107.500000	7.3124500e-47	4.9321250e-47
107.750000	7.3016500e-47	4.9311550e-47
108.000000	7.2913500e-47	4.9302550e-47
108.250000	7.2805000e-47	4.9293050e-47
108.500000	7.2699500e-47	4.9283550e-47
108.750000	7.2596500e-47	4.9277700e-47
109.000000	7.2488000e-47	4.9272050e-47
109.250000	7.2379000e-47	4.9267750e-47
109.500000	7.2271000e-47	4.9264450e-47
109.750000	7.2161000e-47	4.9262650e-47
110.000000	7.2052000e-47	4.9257950e-47
110.250000	7.1945500e-47	4.9255000e-47
110.500000	7.1839500e-47	4.9252250e-47
110.750000	7.1731000e-47	4.9247850e-47
111.000000	7.1620500e-47	4.9243850e-47
111.250000	7.1515000e-47	4.9243650e-47
111.500000	7.1403500e-47	4.9244500e-47
111.750000	7.1287500e-47	4.9244350e-47
112.000000	7.1180500e-47	4.9241950e-47
112.250000	7.1070500e-47	4.9243500e-47
112.500000	7.0964000e-47	4.9246850e-47
112.750000	7.0855000e-47	4.9250250e-47
113.000000	7.0749000e-47	4.9252750e-47
113.250000	7.0639000e-47	4.9257400e-47
113.500000	7.0525500e-47	4.9257550e-47
113.750000	7.0412500e-47	4.9263350e-47
114.000000	7.0307000e-47	4.9265100e-47
114.250000	7.0194500e-47	4.9270350e-47
114.500000	7.0088500e-47	4.9280500e-47
114.750000	6.9979500e-47	4.9287600e-47
115.000000	6.9871500e-47	4.9296400e-47
115.250000	6.9762500e-47	4.9303800e-47
115.500000	6.9655500e-47	4.9313400e-47
115.750000	6.9552000e-47	4.9320950e-47
116.000000	6.9449000e-47	4.9330050e-47
116.250000	6.9342500e-47	4.9337450e-47
116.500000	6.9236000e-47	4.9346000e-47
116.750000	6.9132000e-47	4.9353000e-47
117.000000	6.9026000e-47	4.9362700e-47
117.250000	6.8919000e-47	4.9372200e-47
117.500000	6.8813000e-47	4.9379750e-47
117.750000	6.8705000e-47	4.9389500e-47
118.000000	6.8601500e-47	4.9399950e-47
118.250000	6.8497500e-47	4.9409800e-47
118.500000	6.8398500e-47	4.9420450e-47
118.750000	6.8295500e-47	4.9433800e-47
119.000000	6.8194000e-47	4.9446050e-47
119.250000	6.8093500e-47	4.9455500e-47
119.500000	6.7989000e-47	4.9466600e-47
119.750000	6.7885000e-47	4.9480650e-47
120.000000	6.7780000e-47	4.9493950e-47
120.250000	6.7679000e-47	4.9506950e-47
120.500000	6.7584500e-47	4.9520500e-47
120.750000	6.7486000e-47	4.9530800e-47
121.000000	6.7385500e-47	4.9545150e-47
121.250000	6.7285500e-47	4.9553400e-47
121.500000	6.7189500e-47	4.9566250e-47
121.750000	6.7088500e-47	4.9579200e-47
122.000000	6.6992500e-47	4.9593500e-47
122.250000	6.6888000e-47	4.9607650e-47
122.500000	6.6786500e-47	4.9620650e-47
122.750000	6.6687000e-47	4.9635350e-47
123.000000	6.6583000e-47	4.9651500e-47
123.250000	6.6484000e-47	4.9668600e-47
123.500000	6.6382000e-47	4.9684100e-47
123.750000	6.6279500e-47	4.9695900e-47
124.000000	6.6180000e-47	4.9710300e-47
124.250000	6.6075500e-47	4.9725950e-47
124.500000	6.5978500e-47	4.9743150e-47
124.750000	6.5880500e-47	4.9756050e-47
125.000000	6.5777000e-47	4.9770050e-47
125.250000	6.5681500e-47	4.9785600e-47
125.500000	6.5581000e-47	4.9803400e-47
125.750000	6.5485500e-47	4.9818550e-47
126.000000	6.5384000e-47	4.9836050e-47
126.250000	6.5280500e-47	4.9849200e-47
126.500000	6.5183000e-47	4.9864000e-47
126.750000	6.5080500e-47	4.9879400e-47
127.000000	6.4987000e-47	4.9898050e-47
127.250000	6.4887000e-47	4.9914000e-47
127.500000	6.4793500e-47	4.9928550e-47
127.750000	6.4696500e-47	4.9945000e-47
128.000000	6.4596500e-47	4.9959650e-47
128.250000	6.4498500e-47	4.9972950e-47
128.500000	6.4401000e-47	4.9985700e-47
128.750000	6.4308000e-47	4.9999800e-47
129.000000	6.4211500e-47	5.0015500e-47
129.250000	6.4119000e-47	5.0030500e-47
129.500000	6.4024500e-47	5.0044000e-47
129.750000	6.3929500e-47	5.0057500e-47
130.000000	6.3835500e-47	5.0073000e-47
130.250000	6.3742500e-47	5.0090500e-47
130.500000	6.3647500e-47	5.0107000e-47
130.750000	6.3551500e-47	5.0121000e-47
131.000000	6.3458000e-47	5.0138500e-47
131.250000	6.3363500e-47	5.0153000e-47
131.500000	6.3270000e-47	5.0170000e-47
131.750000	6.3179500e-47	5.0186500e-47
132.000000	6.3086500e-47	5.0205500e-47
132.250000	6.2993500e-47	5.0223000e-47
132.500000	6.2899000e-47	5.0238500e-47
132.750000	6.2810500e-47	5.0254500e-47
133.000000	6.2716500e-47	5.0268000e-47
133.250000	6.2629000e-47	5.0285500e-47
133.500000	6.2537500e-47	5.0301500e-47
133.750000	6.2453000e-47	5.0316000e-47
134.000000	6.2358500e-47	5.0330500e-47
134.250000	6.2266500e-47	5.0348500e-47
134.500000	6.2170500e-47	5.0364500e-47
134.750000	6.2077000e-47	5.0377000e-47
135.000000	6.1983000e-47	5.0391000e-47
135.250000	6.1891500e-47	5.0407500e-47
135.500000	6.1800500e-47	5.0427500e-47
135.750000	6.1711500e-47	5.0439500e-47
136.000000	6.1621500e-47	5.0453500e-47
136.250000	6.1532500e-47	5.0468500e-47
136.500000	6.1443500e-47	5.0486500e-47
136.750000	6.1347500e-47	5.0500500e-47
137.000000	6.1258500e-47	5.0519500e-47
137.250000	6.1169000e-47	5.0536500e-47
137.500000	6.1085000e-47	5.0554000e-47
137.750000	6.0997500e-47	5.0573000e-47
138.000000	6.0908500e-47	5.0589500e-47
138.250000	6.0822500e-47	5.0603000e-47
138.500000	6.0733500e-47	5.0618500e-47
138.750000	6.0645000e-47	5.0635000e-47
139.000000	6.0558500e-47	5.0651500e-47
139.250000	6.0473500e-47	5.0669000e-47
139.500000	6.0384000e-47	5.0686500e-47
139.750000	6.0296500e-47	5.0702500e-47
140.000000	6.0210000e-47	5.0719500e-47
140.250000	6.0122500e-47	5.0736000e-47
140.500000	6.0037500e-47	5.0750500e-47
140.750000	5.9955000e-47	5.0768500e-47
141.000000	5.9868500e-47	5.0783500e-47
141.250000	5.9782000e-47	5.0800500e-47
141.500000	5.9697500e-47	5.0817000e-47
141.750000	5.9610500e-47	5.0833500e-47
142.000000	5.9527500e-47	5.0852000e-47
142.250000	5.9447000e-47	5.0868500e-47
142.500000	5.9363500e-47	5.0882500e-47
142.750000	5.9277500e-47	5.0897500e-47
143.000000	5.9193000e-47	5.0913500e-47
143.250000	5.9107000e-47	5.0928500e-47
143.500000	5.9022000e-47	5.0945000e-47
143.750000	5.8940000e-47	5.0964500e-47
144.000000	5.8857000e-47	5.0981500e-47
144.250000	5.8775000e-47	5.0996500e-47
144.500000	5.8693000e-47	5.1013000e-47
144.750000	5.8610500e-47	5.1028500e-47
145.000000	5.8529500e-47	5.1046000e-47
145.250000	5.8446500e-47	5.1063500e-47
145.500000	5.8364000e-47	5.1082000e-47
145.750000	5.8282000e-47	5.1099000e-47
146.000000	5.8198500e-47	5.1113500e-47
146.250000	5.8117500e-47	5.1129000e-47
